PROFILE   1 (  1)  column H2O  40.726 kg/m**2  column O3 276.354 DU            
Lvl    Alt Pressure   Temp      H2O      CO2       O3        N2O         CO         CH4        O2           N2    
  1  65.06     0.10 231.57 5.15E-06 3.60E-04 5.32E-07 1.40E-09 2.17E-07 1.50E-07 2.09E-01 7.81E-01
  2  57.84     0.29 255.84 5.97E-06 3.60E-04 1.29E-06 2.33E-09 9.70E-08 1.55E-07 2.09E-01 7.81E-01
  3  51.35     0.69 267.89 6.00E-06 3.60E-04 2.41E-06 4.07E-09 5.29E-08 1.94E-07 2.09E-01 7.81E-01
  4  45.69     1.42 266.52 5.77E-06 3.60E-04 4.10E-06 1.33E-08 3.41E-08 3.31E-07 2.09E-01 7.81E-01
  5  40.94     2.61 256.57 5.34E-06 3.60E-04 6.69E-06 3.60E-08 2.65E-08 5.13E-07 2.09E-01 7.81E-01
  6  37.01     4.41 247.97 4.87E-06 3.60E-04 8.87E-06 6.91E-08 2.20E-08 6.69E-07 2.09E-01 7.81E-01
  7  33.70     6.95 240.84 4.47E-06 3.60E-04 9.76E-06 1.02E-07 1.94E-08 7.80E-07 2.09E-01 7.81E-01
  8  30.88    10.37 234.75 4.13E-06 3.60E-04 9.53E-06 1.30E-07 1.77E-08 8.75E-07 2.09E-01 7.81E-01
  9  28.43    14.81 229.51 3.78E-06 3.60E-04 8.47E-06 1.50E-07 1.65E-08 9.52E-07 2.09E-01 7.81E-01
 10  26.28    20.40 224.83 3.46E-06 3.60E-04 6.77E-06 1.65E-07 1.56E-08 1.01E-06 2.09E-01 7.81E-01
 11  24.37    27.26 220.57 3.24E-06 3.60E-04 4.93E-06 1.80E-07 1.46E-08 1.08E-06 2.09E-01 7.81E-01
 12  22.67    35.51 216.65 2.93E-06 3.60E-04 3.26E-06 1.97E-07 1.31E-08 1.20E-06 2.09E-01 7.81E-01
 13  21.12    45.29 211.88 2.72E-06 3.60E-04 2.10E-06 2.15E-07 1.26E-08 1.32E-06 2.09E-01 7.81E-01
 14  19.73    56.73 206.61 2.61E-06 3.60E-04 1.35E-06 2.37E-07 1.35E-08 1.42E-06 2.09E-01 7.81E-01
 15  18.46    69.97 201.59 2.66E-06 3.60E-04 7.69E-07 2.57E-07 1.67E-08 1.49E-06 2.09E-01 7.81E-01
 16  17.30    85.18 197.05 2.82E-06 3.60E-04 3.67E-07 2.72E-07 2.20E-08 1.54E-06 2.09E-01 7.81E-01
 17  16.26   102.05 196.35 2.98E-06 3.60E-04 1.95E-07 2.83E-07 2.78E-08 1.57E-06 2.09E-01 7.81E-01
 18  15.23   122.04 200.84 3.59E-06 3.60E-04 1.36E-07 2.91E-07 3.55E-08 1.59E-06 2.09E-01 7.81E-01
 19  14.26   143.84 207.11 5.05E-06 3.60E-04 1.15E-07 2.97E-07 4.50E-08 1.62E-06 2.09E-01 7.81E-01
 20  13.32   167.95 213.54 8.28E-06 3.60E-04 9.92E-08 3.02E-07 5.69E-08 1.64E-06 2.09E-01 7.81E-01
 21  12.41   194.36 219.75 1.68E-05 3.60E-04 8.62E-08 3.07E-07 6.98E-08 1.65E-06 2.09E-01 7.81E-01
 22  11.53   222.94 225.63 3.85E-05 3.60E-04 7.42E-08 3.11E-07 8.17E-08 1.67E-06 2.09E-01 7.81E-01
 23  10.67   253.71 231.44 8.99E-05 3.60E-04 6.42E-08 3.15E-07 9.15E-08 1.68E-06 2.09E-01 7.81E-01
 24   9.85   286.60 237.10 1.93E-04 3.60E-04 5.66E-08 3.18E-07 9.98E-08 1.68E-06 2.09E-01 7.81E-01
 25   9.05   321.50 242.54 3.55E-04 3.60E-04 5.10E-08 3.19E-07 1.08E-07 1.69E-06 2.09E-01 7.81E-01
 26   8.28   358.28 247.74 6.02E-04 3.60E-04 4.69E-08 3.20E-07 1.15E-07 1.70E-06 2.09E-01 7.81E-01
 27   7.54   396.81 252.75 9.23E-04 3.60E-04 4.39E-08 3.20E-07 1.21E-07 1.70E-06 2.09E-01 7.81E-01
 28   6.83   436.95 257.59 1.34E-03 3.60E-04 4.20E-08 3.20E-07 1.25E-07 1.70E-06 2.09E-01 7.81E-01
 29   6.14   478.54 262.22 1.89E-03 3.60E-04 4.04E-08 3.20E-07 1.28E-07 1.70E-06 2.09E-01 7.81E-01
 30   5.48   521.46 266.67 2.59E-03 3.60E-04 3.89E-08 3.20E-07 1.29E-07 1.70E-06 2.09E-01 7.81E-01
 31   4.85   565.54 270.96 3.32E-03 3.60E-04 3.75E-08 3.20E-07 1.30E-07 1.70E-06 2.09E-01 7.81E-01
 32   4.24   610.60 275.07 4.27E-03 3.60E-04 3.63E-08 3.20E-07 1.31E-07 1.70E-06 2.09E-01 7.81E-01
 33   3.66   656.43 279.01 5.64E-03 3.60E-04 3.56E-08 3.20E-07 1.32E-07 1.70E-06 2.09E-01 7.81E-01
 34   3.10   702.73 282.29 7.76E-03 3.60E-04 3.49E-08 3.20E-07 1.34E-07 1.70E-06 2.09E-01 7.81E-01
 35   2.57   749.12 285.12 1.07E-02 3.60E-04 3.43E-08 3.20E-07 1.37E-07 1.70E-06 2.09E-01 7.81E-01
 36   2.08   795.09 287.70 1.36E-02 3.60E-04 3.35E-08 3.20E-07 1.39E-07 1.70E-06 2.09E-01 7.81E-01
 37   1.61   839.95 290.04 1.64E-02 3.60E-04 3.27E-08 3.20E-07 1.42E-07 1.70E-06 2.09E-01 7.81E-01
 38   1.19   882.80 292.49 1.87E-02 3.60E-04 3.17E-08 3.20E-07 1.44E-07 1.70E-06 2.09E-01 7.81E-01
 39   0.81   922.46 294.78 2.07E-02 3.60E-04 3.08E-08 3.20E-07 1.46E-07 1.70E-06 2.09E-01 7.81E-01
 40   0.49   957.44 296.73 2.25E-02 3.60E-04 3.00E-08 3.20E-07 1.48E-07 1.70E-06 2.09E-01 7.81E-01
 41   0.24   985.88 298.27 2.42E-02 3.60E-04 2.93E-08 3.20E-07 1.49E-07 1.70E-06 2.09E-01 7.81E-01
 42   0.07  1005.43 299.30 2.54E-02 3.60E-04 2.89E-08 3.20E-07 1.50E-07 1.70E-06 2.09E-01 7.81E-01
 43   0.00  1013.25 299.71 2.59E-02 3.60E-04 2.87E-08 3.20E-07 1.50E-07 1.70E-06 2.09E-01 7.81E-01
PROFILE   2 (  2)  column H2O  29.061 kg/m**2  column O3 330.473 DU            
Lvl    Alt Pressure   Temp      H2O      CO2       O3        N2O         CO         CH4        O2           N2    
  1  66.10     0.10 230.17 4.07E-06 3.60E-04 5.85E-07 1.33E-09 2.40E-07 1.50E-07 2.09E-01 7.81E-01
  2  58.92     0.29 257.92 5.01E-06 3.60E-04 1.33E-06 2.17E-09 1.07E-07 1.53E-07 2.09E-01 7.81E-01
  3  52.38     0.69 272.32 5.42E-06 3.60E-04 2.23E-06 3.75E-09 5.67E-08 1.85E-07 2.09E-01 7.81E-01
  4  46.63     1.42 273.33 5.48E-06 3.60E-04 3.80E-06 1.11E-08 3.59E-08 3.02E-07 2.09E-01 7.81E-01
  5  41.75     2.61 262.16 5.25E-06 3.60E-04 6.29E-06 3.14E-08 2.74E-08 4.86E-07 2.09E-01 7.81E-01
  6  37.74     4.41 252.26 5.02E-06 3.60E-04 8.51E-06 6.30E-08 2.26E-08 6.46E-07 2.09E-01 7.81E-01
  7  34.37     6.95 244.09 4.93E-06 3.60E-04 8.74E-06 9.65E-08 1.98E-08 7.60E-07 2.09E-01 7.81E-01
  8  31.51    10.37 237.35 4.80E-06 3.60E-04 7.74E-06 1.24E-07 1.81E-08 8.55E-07 2.09E-01 7.81E-01
  9  29.04    14.81 232.06 4.62E-06 3.60E-04 6.67E-06 1.47E-07 1.68E-08 9.36E-07 2.09E-01 7.81E-01
 10  26.86    20.40 227.85 4.40E-06 3.60E-04 5.76E-06 1.62E-07 1.58E-08 9.99E-07 2.09E-01 7.81E-01
 11  24.93    27.26 225.27 4.19E-06 3.60E-04 4.76E-06 1.75E-07 1.50E-08 1.05E-06 2.09E-01 7.81E-01
 12  23.18    35.51 223.20 3.89E-06 3.60E-04 3.66E-06 1.93E-07 1.34E-08 1.17E-06 2.09E-01 7.81E-01
 13  21.59    45.29 221.32 3.59E-06 3.60E-04 2.78E-06 2.10E-07 1.26E-08 1.29E-06 2.09E-01 7.81E-01
 14  20.14    56.73 219.56 3.35E-06 3.60E-04 2.10E-06 2.31E-07 1.30E-08 1.40E-06 2.09E-01 7.81E-01
 15  18.79    69.97 217.90 3.21E-06 3.60E-04 1.44E-06 2.53E-07 1.57E-08 1.48E-06 2.09E-01 7.81E-01
 16  17.53    85.18 216.47 3.18E-06 3.60E-04 9.03E-07 2.70E-07 2.12E-08 1.53E-06 2.09E-01 7.81E-01
 17  16.39   102.05 215.77 3.25E-06 3.60E-04 6.60E-07 2.83E-07 2.76E-08 1.57E-06 2.09E-01 7.81E-01
 18  15.26   122.04 215.70 3.46E-06 3.60E-04 5.40E-07 2.92E-07 3.59E-08 1.60E-06 2.09E-01 7.81E-01
 19  14.22   143.84 215.71 4.35E-06 3.60E-04 4.55E-07 2.98E-07 4.62E-08 1.62E-06 2.09E-01 7.81E-01
 20  13.24   167.95 216.50 7.48E-06 3.60E-04 3.50E-07 3.03E-07 5.84E-08 1.64E-06 2.09E-01 7.81E-01
 21  12.32   194.36 219.73 1.78E-05 3.60E-04 2.61E-07 3.07E-07 7.15E-08 1.65E-06 2.09E-01 7.81E-01
 22  11.43   222.94 225.09 4.90E-05 3.60E-04 2.04E-07 3.11E-07 8.31E-08 1.67E-06 2.09E-01 7.81E-01
 23  10.58   253.71 230.76 1.25E-04 3.60E-04 1.62E-07 3.15E-07 9.27E-08 1.68E-06 2.09E-01 7.81E-01
 24   9.76   286.60 236.19 2.53E-04 3.60E-04 1.32E-07 3.18E-07 1.01E-07 1.69E-06 2.09E-01 7.81E-01
 25   8.96   321.50 241.42 3.98E-04 3.60E-04 1.11E-07 3.19E-07 1.09E-07 1.69E-06 2.09E-01 7.81E-01
 26   8.20   358.28 246.45 5.77E-04 3.60E-04 9.67E-08 3.20E-07 1.16E-07 1.70E-06 2.09E-01 7.81E-01
 27   7.46   396.81 251.30 8.05E-04 3.60E-04 8.46E-08 3.20E-07 1.21E-07 1.70E-06 2.09E-01 7.81E-01
 28   6.75   436.95 255.95 1.09E-03 3.60E-04 7.45E-08 3.20E-07 1.25E-07 1.70E-06 2.09E-01 7.81E-01
 29   6.07   478.54 260.30 1.44E-03 3.60E-04 6.61E-08 3.20E-07 1.28E-07 1.70E-06 2.09E-01 7.81E-01
 30   5.42   521.46 264.38 1.89E-03 3.60E-04 5.94E-08 3.20E-07 1.30E-07 1.70E-06 2.09E-01 7.81E-01
 31   4.79   565.54 268.21 2.51E-03 3.60E-04 5.41E-08 3.20E-07 1.30E-07 1.70E-06 2.09E-01 7.81E-01
 32   4.19   610.60 271.87 3.35E-03 3.60E-04 4.97E-08 3.20E-07 1.31E-07 1.70E-06 2.09E-01 7.81E-01
 33   3.61   656.43 275.37 4.47E-03 3.60E-04 4.60E-08 3.20E-07 1.33E-07 1.70E-06 2.09E-01 7.81E-01
 34   3.06   702.73 278.71 5.81E-03 3.60E-04 4.27E-08 3.20E-07 1.35E-07 1.70E-06 2.09E-01 7.81E-01
 35   2.54   749.12 281.80 7.41E-03 3.60E-04 3.99E-08 3.20E-07 1.37E-07 1.70E-06 2.09E-01 7.81E-01
 36   2.05   795.09 284.49 9.16E-03 3.60E-04 3.75E-08 3.20E-07 1.40E-07 1.70E-06 2.09E-01 7.81E-01
 37   1.59   839.95 286.90 1.11E-02 3.60E-04 3.56E-08 3.20E-07 1.42E-07 1.70E-06 2.09E-01 7.81E-01
 38   1.17   882.80 288.88 1.28E-02 3.60E-04 3.40E-08 3.20E-07 1.44E-07 1.70E-06 2.09E-01 7.81E-01
 39   0.80   922.46 290.58 1.45E-02 3.60E-04 3.27E-08 3.20E-07 1.46E-07 1.70E-06 2.09E-01 7.81E-01
 40   0.49   957.44 292.01 1.61E-02 3.60E-04 3.17E-08 3.20E-07 1.48E-07 1.70E-06 2.09E-01 7.81E-01
 41   0.24   985.88 293.15 1.75E-02 3.60E-04 3.09E-08 3.20E-07 1.49E-07 1.70E-06 2.09E-01 7.81E-01
 42   0.07  1005.43 293.91 1.84E-02 3.60E-04 3.04E-08 3.20E-07 1.50E-07 1.70E-06 2.09E-01 7.81E-01
 43   0.00  1013.25 294.21 1.87E-02 3.60E-04 3.02E-08 3.20E-07 1.50E-07 1.70E-06 2.09E-01 7.81E-01
PROFILE   3 (  3)  column H2O   8.329 kg/m**2  column O3 373.740 DU            
Lvl    Alt Pressure   Temp      H2O      CO2       O3        N2O         CO         CH4        O2           N2  
  1  63.85     0.10 241.64 4.03E-06 3.60E-04 5.76E-07 1.54E-09 1.80E-07 1.50E-07 2.09E-01 7.81E-01
  2  56.32     0.29 257.28 4.73E-06 3.60E-04 1.44E-06 2.66E-09 8.02E-08 1.60E-07 2.09E-01 7.81E-01
  3  49.80     0.69 265.32 4.95E-06 3.60E-04 2.80E-06 5.05E-09 4.58E-08 2.15E-07 2.09E-01 7.81E-01
  4  44.19     1.42 256.25 5.00E-06 3.60E-04 4.96E-06 1.88E-08 3.12E-08 3.89E-07 2.09E-01 7.81E-01
  5  39.62     2.61 242.53 4.95E-06 3.60E-04 6.85E-06 4.67E-08 2.48E-08 5.71E-07 2.09E-01 7.81E-01
  6  35.91     4.41 231.28 4.87E-06 3.60E-04 7.14E-06 8.03E-08 2.10E-08 7.07E-07 2.09E-01 7.81E-01
  7  32.82     6.95 222.07 4.81E-06 3.60E-04 6.87E-06 1.11E-07 1.89E-08 8.11E-07 2.09E-01 7.81E-01
  8  30.22    10.37 217.98 4.76E-06 3.60E-04 6.23E-06 1.36E-07 1.74E-08 8.97E-07 2.09E-01 7.81E-01
  9  27.95    14.81 216.01 4.71E-06 3.60E-04 5.73E-06 1.54E-07 1.63E-08 9.67E-07 2.09E-01 7.81E-01
 10  25.92    20.40 215.34 4.67E-06 3.60E-04 5.32E-06 1.68E-07 1.54E-08 1.02E-06 2.09E-01 7.81E-01
 11  24.09    27.26 215.20 4.61E-06 3.60E-04 4.81E-06 1.84E-07 1.43E-08 1.10E-06 2.09E-01 7.81E-01
 12  22.43    35.51 215.20 4.55E-06 3.60E-04 4.14E-06 2.00E-07 1.28E-08 1.22E-06 2.09E-01 7.81E-01
 13  20.90    45.29 215.20 4.51E-06 3.60E-04 3.45E-06 2.19E-07 1.27E-08 1.34E-06 2.09E-01 7.81E-01
 14  19.48    56.73 215.22 4.50E-06 3.60E-04 2.66E-06 2.42E-07 1.41E-08 1.44E-06 2.09E-01 7.81E-01
 15  18.16    69.97 215.54 4.50E-06 3.60E-04 1.94E-06 2.62E-07 1.83E-08 1.51E-06 2.09E-01 7.81E-01
 16  16.91    85.18 216.17 4.52E-06 3.60E-04 1.43E-06 2.77E-07 2.45E-08 1.55E-06 2.09E-01 7.81E-01
 17  15.77   102.05 216.74 4.61E-06 3.60E-04 1.09E-06 2.88E-07 3.15E-08 1.58E-06 2.09E-01 7.81E-01
 18  14.64   122.04 217.31 4.72E-06 3.60E-04 8.87E-07 2.96E-07 4.19E-08 1.61E-06 2.09E-01 7.81E-01
 19  13.59   143.84 217.84 4.87E-06 3.60E-04 7.71E-07 3.01E-07 5.40E-08 1.63E-06 2.09E-01 7.81E-01
 20  12.60   167.95 218.33 5.34E-06 3.60E-04 6.39E-07 3.06E-07 6.77E-08 1.65E-06 2.09E-01 7.81E-01
 21  11.67   194.36 218.80 7.06E-06 3.60E-04 4.83E-07 3.10E-07 8.02E-08 1.66E-06 2.09E-01 7.81E-01
 22  10.79   222.94 219.24 1.25E-05 3.60E-04 3.45E-07 3.14E-07 9.05E-08 1.68E-06 2.09E-01 7.81E-01
 23   9.96   253.71 220.83 2.53E-05 3.60E-04 2.46E-07 3.17E-07 9.89E-08 1.68E-06 2.09E-01 7.81E-01
 24   9.17   286.60 224.13 4.74E-05 3.60E-04 1.77E-07 3.19E-07 1.07E-07 1.69E-06 2.09E-01 7.81E-01
 25   8.42   321.50 228.59 7.71E-05 3.60E-04 1.29E-07 3.20E-07 1.14E-07 1.69E-06 2.09E-01 7.81E-01
 26   7.69   358.28 233.01 1.31E-04 3.60E-04 1.00E-07 3.20E-07 1.20E-07 1.70E-06 2.09E-01 7.81E-01
 27   7.00   396.81 237.24 2.21E-04 3.60E-04 8.02E-08 3.20E-07 1.24E-07 1.70E-06 2.09E-01 7.81E-01
 28   6.33   436.95 241.28 3.68E-04 3.60E-04 6.63E-08 3.20E-07 1.27E-07 1.70E-06 2.09E-01 7.81E-01
 29   5.69   478.54 245.18 5.53E-04 3.60E-04 5.60E-08 3.20E-07 1.29E-07 1.70E-06 2.09E-01 7.81E-01
 30   5.07   521.46 248.91 7.73E-04 3.60E-04 4.80E-08 3.20E-07 1.30E-07 1.70E-06 2.09E-01 7.81E-01
 31   4.48   565.54 252.48 1.01E-03 3.60E-04 4.15E-08 3.20E-07 1.31E-07 1.70E-06 2.09E-01 7.81E-01
 32   3.91   610.60 255.92 1.32E-03 3.60E-04 3.70E-08 3.20E-07 1.32E-07 1.70E-06 2.09E-01 7.81E-01
 33   3.37   656.43 259.05 1.69E-03 3.60E-04 3.36E-08 3.20E-07 1.33E-07 1.70E-06 2.09E-01 7.81E-01
 34   2.85   702.73 261.56 2.07E-03 3.60E-04 3.16E-08 3.20E-07 1.35E-07 1.70E-06 2.09E-01 7.81E-01
 35   2.36   749.12 263.76 2.47E-03 3.60E-04 3.00E-08 3.20E-07 1.38E-07 1.70E-06 2.09E-01 7.81E-01
 36   1.90   795.09 265.40 2.78E-03 3.60E-04 2.91E-08 3.20E-07 1.40E-07 1.70E-06 2.09E-01 7.81E-01
 37   1.48   839.95 266.89 3.09E-03 3.60E-04 2.84E-08 3.20E-07 1.42E-07 1.70E-06 2.09E-01 7.81E-01
 38   1.09   882.80 268.26 3.37E-03 3.60E-04 2.81E-08 3.20E-07 1.44E-07 1.70E-06 2.09E-01 7.81E-01
 39   0.74   922.46 269.47 3.63E-03 3.60E-04 2.80E-08 3.20E-07 1.46E-07 1.70E-06 2.09E-01 7.81E-01
 40   0.45   957.44 270.50 3.87E-03 3.60E-04 2.79E-08 3.20E-07 1.48E-07 1.70E-06 2.09E-01 7.81E-01
 41   0.22   985.88 271.31 4.08E-03 3.60E-04 2.78E-08 3.20E-07 1.49E-07 1.70E-06 2.09E-01 7.81E-01
 42   0.06  1005.43 271.86 4.22E-03 3.60E-04 2.78E-08 3.20E-07 1.50E-07 1.70E-06 2.09E-01 7.81E-01
 43   0.00  1013.25 272.07 4.28E-03 3.60E-04 2.78E-08 3.20E-07 1.50E-07 1.70E-06 2.09E-01 7.81E-01
PROFILE   4 (  4)  column H2O  21.041 kg/m**2  column O3 343.476 DU            
Lvl    Alt Pressure   Temp      H2O      CO2       O3        N2O         CO         CH4        O2           N2 
  1  66.54     0.10 227.47 3.61E-06 3.60E-04 5.54E-07 1.31E-09 2.50E-07 1.50E-07 2.09E-01 7.81E-01
  2  59.45     0.29 261.60 4.49E-06 3.60E-04 1.21E-06 2.10E-09 1.11E-07 1.52E-07 2.09E-01 7.81E-01
  3  52.81     0.69 275.24 4.89E-06 3.60E-04 2.00E-06 3.64E-09 5.82E-08 1.83E-07 2.09E-01 7.81E-01
  4  46.99     1.42 275.58 5.00E-06 3.60E-04 3.39E-06 1.04E-08 3.66E-08 2.93E-07 2.09E-01 7.81E-01
  5  42.08     2.61 268.21 5.00E-06 3.60E-04 5.65E-06 3.01E-08 2.77E-08 4.77E-07 2.09E-01 7.81E-01
  6  37.97     4.41 256.17 5.00E-06 3.60E-04 7.63E-06 6.17E-08 2.28E-08 6.40E-07 2.09E-01 7.81E-01
  7  34.56     6.95 246.19 5.00E-06 3.60E-04 7.56E-06 9.57E-08 1.99E-08 7.57E-07 2.09E-01 7.81E-01
  8  31.67    10.37 238.64 5.00E-06 3.60E-04 6.55E-06 1.23E-07 1.81E-08 8.53E-07 2.09E-01 7.81E-01
  9  29.18    14.81 233.98 4.99E-06 3.60E-04 5.60E-06 1.46E-07 1.68E-08 9.33E-07 2.09E-01 7.81E-01
 10  26.99    20.40 230.54 4.94E-06 3.60E-04 5.16E-06 1.61E-07 1.58E-08 9.98E-07 2.09E-01 7.81E-01
 11  25.03    27.26 228.19 4.90E-06 3.60E-04 4.54E-06 1.75E-07 1.50E-08 1.05E-06 2.09E-01 7.81E-01
 12  23.27    35.51 226.06 4.84E-06 3.60E-04 3.86E-06 1.93E-07 1.34E-08 1.17E-06 2.09E-01 7.81E-01
 13  21.66    45.29 225.28 4.75E-06 3.60E-04 3.07E-06 2.10E-07 1.25E-08 1.29E-06 2.09E-01 7.81E-01
 14  20.17    56.73 225.20 4.63E-06 3.60E-04 2.26E-06 2.32E-07 1.31E-08 1.41E-06 2.09E-01 7.81E-01
 15  18.79    69.97 225.20 4.45E-06 3.60E-04 1.62E-06 2.55E-07 1.60E-08 1.49E-06 2.09E-01 7.81E-01
 16  17.49    85.18 225.20 4.19E-06 3.60E-04 1.16E-06 2.72E-07 2.19E-08 1.53E-06 2.09E-01 7.81E-01
 17  16.30   102.05 225.20 4.02E-06 3.60E-04 9.02E-07 2.84E-07 2.85E-08 1.57E-06 2.09E-01 7.81E-01
 18  15.12   122.04 225.20 4.00E-06 3.60E-04 7.33E-07 2.93E-07 3.77E-08 1.60E-06 2.09E-01 7.81E-01
 19  14.04   143.84 225.20 4.08E-06 3.60E-04 6.07E-07 2.99E-07 4.92E-08 1.62E-06 2.09E-01 7.81E-01
 20  13.02   167.95 225.20 4.65E-06 3.60E-04 5.06E-07 3.04E-07 6.28E-08 1.64E-06 2.09E-01 7.81E-01
 21  12.05   194.36 225.20 6.63E-06 3.60E-04 4.11E-07 3.09E-07 7.63E-08 1.66E-06 2.09E-01 7.81E-01
 22  11.15   222.94 225.20 1.20E-05 3.60E-04 3.15E-07 3.13E-07 8.73E-08 1.67E-06 2.09E-01 7.81E-01
 23  10.30   253.71 225.72 2.92E-05 3.60E-04 2.28E-07 3.16E-07 9.61E-08 1.68E-06 2.09E-01 7.81E-01
 24   9.49   286.60 229.03 7.51E-05 3.60E-04 1.68E-07 3.19E-07 1.04E-07 1.69E-06 2.09E-01 7.81E-01
 25   8.72   321.50 233.88 1.72E-04 3.60E-04 1.25E-07 3.20E-07 1.12E-07 1.69E-06 2.09E-01 7.81E-01
 26   7.98   358.28 239.13 3.64E-04 3.60E-04 9.82E-08 3.20E-07 1.18E-07 1.70E-06 2.09E-01 7.81E-01
 27   7.26   396.81 244.16 6.42E-04 3.60E-04 8.14E-08 3.20E-07 1.23E-07 1.70E-06 2.09E-01 7.81E-01
 28   6.58   436.95 248.99 9.76E-04 3.60E-04 7.23E-08 3.20E-07 1.26E-07 1.70E-06 2.09E-01 7.81E-01
 29   5.91   478.54 253.67 1.39E-03 3.60E-04 6.40E-08 3.20E-07 1.29E-07 1.70E-06 2.09E-01 7.81E-01
 30   5.28   521.46 257.97 1.92E-03 3.60E-04 5.67E-08 3.20E-07 1.30E-07 1.70E-06 2.09E-01 7.81E-01
 31   4.66   565.54 261.83 2.55E-03 3.60E-04 5.04E-08 3.20E-07 1.31E-07 1.70E-06 2.09E-01 7.81E-01
 32   4.08   610.60 265.15 3.25E-03 3.60E-04 4.56E-08 3.20E-07 1.31E-07 1.70E-06 2.09E-01 7.81E-01
 33   3.51   656.43 268.19 4.03E-03 3.60E-04 4.18E-08 3.20E-07 1.33E-07 1.70E-06 2.09E-01 7.81E-01
 34   2.98   702.73 271.10 4.86E-03 3.60E-04 3.87E-08 3.20E-07 1.35E-07 1.70E-06 2.09E-01 7.81E-01
 35   2.47   749.12 273.85 5.78E-03 3.60E-04 3.60E-08 3.20E-07 1.38E-07 1.70E-06 2.09E-01 7.81E-01
 36   1.99   795.09 276.45 6.67E-03 3.60E-04 3.37E-08 3.20E-07 1.40E-07 1.70E-06 2.09E-01 7.81E-01
 37   1.55   839.95 278.86 7.61E-03 3.60E-04 3.16E-08 3.20E-07 1.42E-07 1.70E-06 2.09E-01 7.81E-01
 38   1.14   882.80 281.08 8.55E-03 3.60E-04 2.96E-08 3.20E-07 1.44E-07 1.70E-06 2.09E-01 7.81E-01
 39   0.78   922.46 283.06 9.48E-03 3.60E-04 2.78E-08 3.20E-07 1.46E-07 1.70E-06 2.09E-01 7.81E-01
 40   0.47   957.44 284.75 1.04E-02 3.60E-04 2.63E-08 3.20E-07 1.48E-07 1.70E-06 2.09E-01 7.81E-01
 41   0.23   985.88 286.09 1.12E-02 3.60E-04 2.51E-08 3.20E-07 1.49E-07 1.70E-06 2.09E-01 7.81E-01
 42   0.07  1005.43 286.99 1.18E-02 3.60E-04 2.43E-08 3.20E-07 1.50E-07 1.70E-06 2.09E-01 7.81E-01
 43   0.00  1013.25 287.35 1.20E-02 3.60E-04 2.40E-08 3.20E-07 1.50E-07 1.70E-06 2.09E-01 7.81E-01
PROFILE   5 (  5)  column H2O   4.071 kg/m**2  column O3 371.234 DU            
Lvl    Alt Pressure   Temp      H2O      CO2       O3        N2O         CO         CH4        O2           N2 
  1  62.89     0.10 249.27 4.17E-06 3.60E-04 7.42E-07 1.68E-09 1.59E-07 1.50E-07 2.09E-01 7.81E-01
  2  55.12     0.29 258.07 4.81E-06 3.60E-04 1.57E-06 2.99E-09 6.99E-08 1.66E-07 2.09E-01 7.81E-01
  3  48.57     0.69 255.55 4.98E-06 3.60E-04 2.82E-06 7.23E-09 4.09E-08 2.49E-07 2.09E-01 7.81E-01
  4  43.17     1.42 242.61 5.00E-06 3.60E-04 4.79E-06 2.37E-08 2.95E-08 4.31E-07 2.09E-01 7.81E-01
  5  38.84     2.61 232.12 5.00E-06 3.60E-04 6.04E-06 5.35E-08 2.38E-08 6.03E-07 2.09E-01 7.81E-01
  6  35.29     4.41 223.44 5.00E-06 3.60E-04 6.20E-06 8.77E-08 2.05E-08 7.31E-07 2.09E-01 7.81E-01
  7  32.31     6.95 218.49 5.00E-06 3.60E-04 5.89E-06 1.17E-07 1.85E-08 8.31E-07 2.09E-01 7.81E-01
  8  29.75    10.37 215.91 5.00E-06 3.60E-04 5.37E-06 1.42E-07 1.71E-08 9.16E-07 2.09E-01 7.81E-01
  9  27.50    14.81 213.73 5.00E-06 3.60E-04 4.93E-06 1.58E-07 1.60E-08 9.83E-07 2.09E-01 7.81E-01
 10  25.49    20.40 211.87 5.00E-06 3.60E-04 4.75E-06 1.71E-07 1.52E-08 1.04E-06 2.09E-01 7.81E-01
 11  23.70    27.26 211.91 4.98E-06 3.60E-04 4.58E-06 1.89E-07 1.38E-08 1.13E-06 2.09E-01 7.81E-01
 12  22.06    35.51 212.90 4.91E-06 3.60E-04 4.25E-06 2.05E-07 1.26E-08 1.26E-06 2.09E-01 7.81E-01
 13  20.54    45.29 213.82 4.83E-06 3.60E-04 3.82E-06 2.26E-07 1.29E-08 1.38E-06 2.09E-01 7.81E-01
 14  19.13    56.73 214.67 4.76E-06 3.60E-04 3.20E-06 2.49E-07 1.51E-08 1.47E-06 2.09E-01 7.81E-01
 15  17.81    69.97 215.46 4.69E-06 3.60E-04 2.38E-06 2.68E-07 2.02E-08 1.52E-06 2.09E-01 7.81E-01
 16  16.57    85.18 216.21 4.63E-06 3.60E-04 1.75E-06 2.82E-07 2.69E-08 1.56E-06 2.09E-01 7.81E-01
 17  15.43   102.05 216.87 4.57E-06 3.60E-04 1.34E-06 2.91E-07 3.51E-08 1.59E-06 2.09E-01 7.81E-01
 18  14.29   122.04 217.18 4.52E-06 3.60E-04 9.94E-07 2.98E-07 4.64E-08 1.62E-06 2.09E-01 7.81E-01
 19  13.25   143.84 217.20 4.60E-06 3.60E-04 7.09E-07 3.03E-07 5.96E-08 1.64E-06 2.09E-01 7.81E-01
 20  12.26   167.95 217.20 5.75E-06 3.60E-04 4.93E-07 3.08E-07 7.35E-08 1.66E-06 2.09E-01 7.81E-01
